#gamxy[%]	gampxy[%]	sigxy[kPa]	p'[kPa]	epsv[%]	epsvp[%]
0.             0.             0.             50             0.             0.             
0.0031410759   3.0992001e-05  4.0335282      50             0              0              
0.006279052    0.00089676571  6.9803916      49.683401      0              -0.00022545791 
0.0094108313   0.002330788    9.1752636      48.928714      0              -0.00076459776 
0.012533323    0.0041985341   10.78504       47.777362      0              -0.0015934297  
0.015643447    0.0064018979   11.934599      46.331186      0              -0.0026469684  
0.018738131    0.0088108654   12.79067       45.193901      0              -0.0034883112  
0.021814324    0.011456877    13.321089      43.457122      0              -0.0047892144  
0.024868989    0.014257488    13.628263      41.69808       0              -0.0061328639  
0.027899111    0.017096668    13.854408      40.498122      0              -0.0070685897  
0.030901699    0.020057174    13.903527      38.826186      0              -0.0083915369  
0.033873792    0.02306559     13.862015      37.252108      0              -0.0096635866  
0.036812455    0.026019413    13.845044      36.203744      0              -0.010528509   
0.039714789    0.02902886     13.726836      34.844925      0              -0.011665679   
0.042577929    0.03177702     13.851322      33.563156      0              -0.012759082   
0.04539905     0.034772283    13.666283      32.750963      0              -0.013465022   
0.048175367    0.037741111    13.464216      31.744466      0              -0.014350629   
0.050904142    0.040659482    13.26829       30.833528      0              -0.015164762   
0.053582679    0.043514888    13.088159      30.009198      0              -0.015912294   
0.056208338    0.046251311    12.976869      29.47854       0              -0.016400078   
0.058778525    0.048974308    12.824698      28.802791      0              -0.017026797   
0.061290705    0.051622572    12.690745      28.221687      0              -0.017572023   
0.063742399    0.054226684    12.542234      27.668934      0              -0.018095962   
0.066131187    0.056732159    12.429658      27.208217      0              -0.018537002   
0.068454711    0.059062884    12.422768      26.765366      0              -0.018964514   
0.070710678    0.061461967    12.286968      26.492211      0              -0.01923038    
0.072896863    0.063796018    12.147378      26.145859      0              -0.019569223   
0.075011107    0.066050563    12.015798      25.82967       0              -0.0198806     
0.077051324    0.068234931    11.881427      25.507882      0              -0.020199423   
0.079015501    0.070313467    11.775493      25.23227       0              -0.020474213   
0.080901699    0.072326078    11.659028      24.97537       0              -0.020731743   
0.082708057    0.074264835    11.537669      24.718556      0              -0.020990506   
0.084432793    0.076107285    11.430327      24.494069      0              -0.021217869   
0.086074203    0.077801699    11.382213      24.232977      0              -0.021483515   
0.087630668    0.079494925    11.258735      24.083401      0              -0.021636518   
0.089100652    0.081109359    11.128717      23.886562      0              -0.021838491   
0.090482705    0.082634932    11.000065      23.697144      0              -0.022033648   
0.091775463    0.084075295    10.868275      23.501928      0              -0.022235581   
0.092977649    0.085414756    10.746216      23.324509      0              -0.022419865   
0.094088077    0.086674899    10.613599      23.130647      0              -0.022621994   
0.095105652    0.087823866    10.497697      22.965513      0              -0.022794889   
0.096029369    0.088827288    10.42764       22.785394      0              -0.02298415    
0.096858316    0.089821742    10.282739      22.637663      0              -0.023139992   
0.097591676    0.090713164    10.144805      22.489275      0              -0.023297036   
0.098228725    0.091496205    10.017822      22.354862      0              -0.023439759   
0.098768834    0.092182106    9.8913934      22.219693      0              -0.023583716   
0.09921147     0.092755119    9.7786738      22.111971      0              -0.02369879    
0.099556196    0.093231476    9.6651467      22.015111      0              -0.023802512   
0.099802673    0.093599116    9.5608768      21.948238      0              -0.02387428    
0.099950656    0.093861495    9.4625803      21.890698      0              -0.023936126   
0.1            0.094002705    9.3837464      21.845708      0              -0.023984546   
0.099950656    0.094057967    9.294072       21.83234       0              -0.023998948   
0.099802673    0.094057967    9.1672512      21.83234       0              -0.023998948   
0.099556196    0.094057967    8.9560223      21.83234       0              -0.023998948   
0.09921147     0.094057967    8.6605936      21.83234       0              -0.023998948   
0.098768834    0.094053116    8.2854141      21.83234       0              -0.023998948   
0.098228725    0.094043608    7.8306919      21.83234       0              -0.023998948   
0.097591676    0.093980878    7.3385042      21.827541      0              -0.024004119   
0.096858316    0.093855384    6.8176228      21.808524      0              -0.024024616   
0.096029369    0.093659974    6.2749814      21.764719      0              -0.024071849   
0.095105652    0.093389376    5.7161289      21.684847      0              -0.02415806    
0.094088077    0.093020014    5.1624938      21.507807      0              -0.0243495     
0.092977649    0.092600344    4.5749341      21.332641      0              -0.024539692   
0.091775463    0.092084632    3.993401       21.092519      0              -0.02480148    
0.090482705    0.091478405    3.4151028      20.768589      0              -0.025156643   
0.089100652    0.090715123    2.8978995      20.231668      0              -0.025749907   
0.087630668    0.08997747     2.2937398      19.801499      0              -0.026231481   
0.086074203    0.089087669    1.749633       19.353862      0              -0.026738024   
0.084432793    0.088095664    1.2256372      18.697245      0              -0.027489594   
0.082708057    0.086958197    0.75988679     17.983879      0              -0.028320331   
0.080901699    0.085668357    0.35813756     16.77663       0              -0.029753824   
0.079015501    0.084409898    -0.11344662    16.137605      0              -0.030539432   
0.077051324    0.082992337    -0.51619164    15.266729      0              -0.031631066   
0.075011107    0.081429415    -0.8582408     14.335967      0              -0.032830582   
0.072896863    0.079735278    -1.1499841     13.367914      0              -0.03411802    
0.070710678    0.077912177    -1.3934659     12.412345      0              -0.035434064   
0.068454711    0.075963106    -1.5917774     11.158856      0              -0.037225634   
0.066131187    0.07405304     -1.8450969     10.267756      0              -0.038568885   
0.063742399    0.070700154    -1.3032671     8.9463599      0              -0.04067961    
0.061290705    0.068054654    -1.2113849     7.5692449      0              -0.043044963   
0.058778525    0.065480633    -1.1927803     6.6336581      0              -0.044781083   
0.056208338    0.062862376    -1.1791929     5.7510641      0              -0.04653507    
0.053582679    0.060280684    -1.2089996     4.6833812      0              -0.048825074   
0.050904142    0.05742078     -1.1437674     4.0452741      0              -0.050334544   
0.048175367    0.054529685    -1.0878968     3.4983692      0              -0.051727506   
0.04539905     0.051605123    -1.0388009     3.0800046      0              -0.05287121    
0.042577929    0.048080635    -0.82781497    2.5445242      0              -0.054449624   
0.039714789    0.04485431     -0.73261338    2.1797253      0              -0.055627681   
0.036812455    0.041783576    -0.69251342    1.9168037      0              -0.056541474   
0.033873792    0.038754226    -0.67177786    1.7426284      0              -0.057183975   
0.030901699    0.035760521    -0.66720963    1.6431793      0              -0.057566583   
0.027899111    0.032797638    -0.67661814    1.5994873      0              -0.057738815   
0.024868989    0.029857283    -0.69741501    1.5958393      0              -0.057753286   
0.021814324    0.026930825    -0.72715325    1.6205033      0              -0.057655202   
0.018738131    0.02401139     -0.76384945    1.6652764      0              -0.057478888   
0.015643447    0.021094393    -0.80601933    1.7246272      0              -0.057248635   
0.012533323    0.018177268    -0.85258536    1.7948709      0              -0.056981069   
0.0094108313   0.015258976    -0.90276253    1.8735353      0              -0.056687482   
0.006279052    0.012339558    -0.95596329    1.9589223      0              -0.056375635   
0.0031410759   0.0094197956   -1.0117286     2.0498219      0              -0.056050986   
0              0.0065009742   -1.069681      2.1453291      0              -0.055717505   
-0.0031410759  0.0035847217   -1.1294935     2.2447289      0              -0.055378193   
-0.006279052   0.00067290155  -1.1908693     2.3474239      0              -0.055035407   
-0.0094108313  -0.0022324592  -1.2535289     2.4528879      0              -0.054691071   
-0.012533323   -0.0051292187  -1.3172018     2.5606369      0              -0.054346815   
-0.015643447   -0.0080151533  -1.3816212     2.6702104      0              -0.054004059   
-0.018738131   -0.010887981   -1.4465214     2.7811602      0              -0.05366407    
-0.021814324   -0.013745377   -1.5116355     2.893043       0              -0.053328001   
-0.024868989   -0.016018523   -1.7554831     2.9610401      0              -0.053126773   
-0.027899111   -0.017911908   -2.1185999     3.123747       0              -0.052653704   
-0.030901699   -0.019641022   -2.5359591     3.5033319      0              -0.0515878     
-0.033873792   -0.021569222   -2.8986967     4.002333       0              -0.05026802    
-0.036812455   -0.023608871   -3.2309771     4.5089627      0              -0.049012078   
-0.039714789   -0.025693058   -3.5504998     5.0247876      0              -0.04780551    
-0.042577929   -0.027819106   -3.853069      5.5253809      0              -0.046694369   
-0.04539905    -0.029974456   -4.1385737     6.0074493      0              -0.045672475   
-0.048175367   -0.032148641   -4.406928      6.4689189      0              -0.044733156   
-0.050904142   -0.034353032   -4.6489017     6.8853558      0              -0.043915149   
-0.053582679   -0.036538457   -4.8828512     7.3035825      0              -0.043118447   
-0.056208338   -0.038717613   -5.1005093     7.697332       0              -0.042389572   
-0.058778525   -0.040884797   -5.3017351     8.0669122      0              -0.041722694   
-0.061290705   -0.043034302   -5.4867226     8.4123088      0              -0.041113518   
-0.063742399   -0.044488985   -6.0171004     8.587398       0              -0.040809541   
-0.066131187   -0.04612291    -6.422821      8.9434161      0              -0.04019778    
-0.068454711   -0.04785207    -6.7488318     9.3314815      0              -0.039544358   
-0.070710678   -0.049576171   -7.0468248     9.7922197      0              -0.038784873   
-0.072896863   -0.051296891   -7.3139745     10.244191      0              -0.038057578   
-0.075011107   -0.053001411   -7.5544989     10.675737      0              -0.037378642   
-0.077051324   -0.054680897   -7.7706761     11.081518      0              -0.036753279   
-0.079015501   -0.056328572   -7.9639192     11.459202      0              -0.03618197    
-0.080901699   -0.05795896    -8.1227462     11.76938       0              -0.035720575   
-0.082708057   -0.059528437   -8.2717972     12.092403      0              -0.035246445   
-0.084432793   -0.061049753   -8.4015379     12.385289      0              -0.034822331   
-0.086074203   -0.062519479   -8.5123562     12.649478      0              -0.034444323   
-0.087630668   -0.063934101   -8.604884      12.886166      0              -0.034109217   
-0.089100652   -0.065290163   -8.6798902     13.096506      0              -0.033814165   
-0.090482705   -0.066584329   -8.7382256     13.281678      0              -0.03355651    
-0.091775463   -0.067813401   -8.7807948     13.442928      0              -0.033333711   
-0.092977649   -0.068974327   -8.8085409     13.581576      0              -0.033143294   
-0.094088077   -0.070064196   -8.8224376     13.699015      0              -0.032982829   
-0.095105652   -0.071080228   -8.8234847     13.796714      0              -0.03284991    
-0.096029369   -0.072024396   -8.8095522     13.866667      0              -0.032755078   
-0.096858316   -0.07288548    -8.787603      13.929962      0              -0.032669488   
-0.097591676   -0.073664755   -8.7561727     13.978194      0              -0.032604415   
-0.098228725   -0.074360042   -8.7162368     14.013193      0              -0.032557276   
-0.098768834   -0.074969164   -8.6688531     14.03682       0              -0.032525495   
-0.09921147    -0.075489976   -8.6151334     14.050989      0              -0.032506452   
-0.099556196   -0.075920375   -8.5562319     14.057686      0              -0.032497455   
-0.099802673   -0.076258308   -8.4933392     14.058978      0              -0.032495719   
-0.099950656   -0.076501765   -8.4276814     14.057024      0              -0.032498344   
-0.1           -0.076648774   -8.3605208     14.054081      0              -0.032502296   
-0.099950656   -0.0766974     -8.2931579     14.052516      0              -0.032504398   
-0.099802673   -0.0766974     -8.1914119     14.052516      0              -0.032504398   
-0.099556196   -0.0766974     -8.0219467     14.052516      0              -0.032504398   
-0.09921147    -0.0766974     -7.7849297     14.052516      0              -0.032504398   
-0.098768834   -0.076692994   -7.4836242     14.052516      0              -0.032504398   
-0.098228725   -0.076683712   -7.1186533     14.052516      0              -0.032504398   
-0.097591676   -0.076625428   -6.720723      14.048989      0              -0.032509136   
-0.096858316   -0.076506222   -6.2985134     14.034161      0              -0.032529057   
-0.096029369   -0.076319226   -5.8574272     13.999374      0              -0.032575816   
-0.095105652   -0.076059492   -5.4017691     13.935906      0              -0.032661232   
-0.094088077   -0.075723295   -4.9352349     13.835583      0              -0.032796556   
-0.092977649   -0.075307612   -4.4612631     13.691112      0              -0.032992134   
-0.091775463   -0.074809756   -3.983268      13.496275      0              -0.033257285   
-0.090482705   -0.074227128   -3.504778      13.246026      0              -0.033600294   
-0.089100652   -0.07355706    -3.0295069     12.936567      0              -0.034028449   
-0.087630668   -0.072796702   -2.5613762     12.565414      0              -0.034548066   
-0.086074203   -0.071942954   -2.1045013     12.131468      0              -0.035164501   
-0.084432793   -0.070992416   -1.6631523     11.635102      0              -0.035882107   
-0.082708057   -0.069931314   -1.2479679     11.144442      0              -0.036606436   
-0.080901699   -0.068776757   -0.84887681    10.529184      0              -0.03753448    
-0.079015501   -0.067512514   -0.47872112    9.8621015      0              -0.038569676   
-0.077051324   -0.066134014   -0.14137852    9.1507169      0              -0.039710346   
-0.075011107   -0.064636125   0.15951843     8.4045798      0              -0.040952374   
-0.072896863   -0.063003941   0.41584132     7.7393638      0              -0.042107808   
-0.070710678   -0.061256785   0.63985442     6.9566911      0              -0.043524476   
-0.068454711   -0.059371545   0.81919717     6.1803779      0              -0.04500657    
-0.066131187   -0.056324668   0.5159826      5.1329486      0              -0.04716978    
-0.063742399   -0.053888301   0.51009236     4.2620025      0              -0.049146033   
-0.061290705   -0.051500089   0.54318268     3.5021945      0              -0.051041475   
-0.058778525   -0.049024271   0.56156837     2.8533362      0              -0.052829301   
-0.056208338   -0.046432361   0.55814161     2.2946531      0              -0.054538312   
-0.053582679   -0.043047648   0.36680296     1.7726742      0              -0.056342524   
-0.050904142   -0.040271937   0.34808624     1.2117613      0              -0.058586359   
-0.048175367   -0.036854826   0.23216519     0.84492587     0              -0.060367773   
-0.04539905    -0.033464662   0.15090471     0.54916728     0              -0.062120638   
-0.042577929   -0.030119317   0.097135557    0.33871469     0              -0.063691781   
-0.039714789   -0.026816695   0.061510302    0.20084835     0              -0.065019587   
-0.036812455   -0.023520433   0.035692042    0.11781446     0              -0.066065487   
-0.033873792   -0.020331969   0.022335196    0.076861906    0              -0.066726292   
-0.030901699   -0.017311148   0.019898552    0.066496406    0              -0.066919858   
-0.027899111   -0.014345306   0.02144286     0.059711875    0              -0.067054319   
-0.024868989   -0.011367578   0.023272667    0.062220365    0              -0.067000971   
-0.021814324   -0.0084050636  0.026907638    0.068075768    0              -0.066883035   
-0.018738131   -0.0054377238  0.031529167    0.075756938    0              -0.066736448   
-0.015643447   -0.0024638772  0.037061697    0.084759187    0              -0.066574309   
-0.012533323   0.00051564176  0.043494174    0.095079898    0              -0.066399118   
-0.0094108313  0.0034835231   0.051753759    0.10768265     0              -0.066198093   
-0.006279052   0.0064292786   0.062438271    0.12474219     0              -0.06594411    
-0.0031410759  0.0093603487   0.075125842    0.14710707     0              -0.065636027   
0              0.012267117    0.090626228    0.17431475     0              -0.065291053   
